Cycle_Index,Test_Time (s),Min_Current (A),Max_Current (A),Min_Voltage (V),Max_Voltage (V),Charge_Capacity (Ah),Discharge_Capacity (Ah),Charge_Energy (Wh),Discharge_Energy (Wh)
1.0,63364.095,-1.61,1.599,2.9,4.164,0.002,3.088,0.008,10.987
2.0,78727.222,-1.6,1.6,2.9,4.0,2.549,2.534,9.67,8.856
3.0,94082.432,-1.6,1.6,2.9,4.0,2.532,2.525,9.607,8.822
4.0,103746.435,-1.6,1.6,2.9,4.0,2.014,2.013,7.541,6.902
5.0,119137.008,-1.6,1.6,2.9,4.0,2.522,2.521,9.572,8.807
6.0,134488.45,-1.6,1.6,2.9,4.0,2.524,2.511,9.58,8.772
7.0,149808.401,-1.601,1.6,2.9,4.0,2.512,2.516,9.536,8.786
8.0,165171.985,-1.6,1.6,2.9,4.0,2.518,2.515,9.557,8.782
9.0,180538.481,-1.6,1.6,2.9,4.0,2.517,2.518,9.553,8.794
10.0,195895.443,-1.6,1.6,2.9,4.0,2.52,2.516,9.562,8.786
11.0,211236.708,-1.6,1.6,2.9,4.0,2.518,2.514,9.558,8.78
12.0,220867.593,-1.6,1.6,2.9,4.0,2.006,2.006,7.508,6.879
13.0,236236.529,-1.6,1.6,2.9,4.0,2.516,2.509,9.55,8.759
14.0,251603.173,-1.6,1.6,2.9,4.0,2.511,2.505,9.534,8.745
15.0,266954.496,-1.6,1.6,2.9,4.0,2.508,2.511,9.522,8.766
16.0,282313.763,-1.6,1.6,2.9,4.0,2.513,2.509,9.539,8.756
17.0,297667.729,-1.6,1.6,2.9,4.0,2.51,2.505,9.53,8.742
18.0,313003.111,-1.6,1.6,2.9,4.0,2.508,2.505,9.52,8.745
19.0,328372.064,-1.6,1.6,2.9,4.0,2.507,2.502,9.519,8.73
20.0,343700.285,-1.6,1.6,2.9,4.0,2.504,2.503,9.508,8.734
21.0,359052.593,-1.601,1.6,2.9,4.0,2.506,2.503,9.514,8.736
22.0,374411.409,-1.6,1.6,2.9,4.0,2.506,2.501,9.514,8.728
23.0,389762.521,-1.6,1.6,2.9,4.0,2.504,2.503,9.506,8.735
24.0,405132.352,-1.6,1.6,2.9,4.0,2.504,2.497,9.509,8.711
25.0,420455.391,-1.6,1.6,2.9,4.0,2.501,2.516,9.496,8.781
26.0,435795.805,-1.6,1.6,2.9,4.0,2.518,2.516,9.554,8.783
27.0,451115.859,-1.6,1.6,2.9,4.0,2.519,2.503,9.556,8.736
28.0,466449.696,-1.6,1.6,2.9,4.0,2.504,2.496,9.506,8.71
29.0,481785.898,-1.6,1.6,2.9,4.0,2.498,2.5,9.487,8.72
30.0,497100.414,-1.6,1.6,2.9,4.0,2.501,2.491,9.498,8.689
31.0,512434.729,-1.6,1.6,2.9,4.0,2.494,2.494,9.474,8.701
32.0,527788.136,-1.6,1.6,2.9,4.0,2.496,2.496,9.48,8.704
33.0,543119.083,-1.6,1.6,2.9,4.0,2.498,2.491,9.487,8.689
34.0,558446.575,-1.6,1.6,2.9,4.0,2.494,2.493,9.473,8.695
35.0,573800.769,-1.6,1.6,2.9,4.0,2.495,2.49,9.478,8.684
36.0,589155.677,-1.6,1.6,2.9,4.0,2.491,2.49,9.463,8.68
37.0,604498.724,-1.6,1.6,2.9,4.0,2.493,2.486,9.471,8.668
38.0,619857.103,-1.6,1.6,2.9,4.0,2.489,2.495,9.457,8.701
39.0,635223.269,-1.6,1.6,2.9,4.0,2.496,2.485,9.483,8.665
40.0,644650.418,-1.6,1.6,2.9,4.0,1.959,1.962,7.34,6.709
41.0,659999.409,-1.6,1.6,2.9,4.0,2.489,2.481,9.458,8.65
42.0,675361.216,-1.6,1.6,2.9,4.0,2.484,2.482,9.44,8.648
43.0,690710.713,-1.6,1.6,2.9,4.0,2.484,2.485,9.441,8.661
44.0,706057.997,-1.6,1.6,2.9,4.0,2.486,2.482,9.446,8.651
45.0,721416.952,-1.6,1.6,2.9,4.0,2.484,2.484,9.442,8.658
46.0,736771.285,-1.6,1.6,2.9,4.0,2.486,2.482,9.448,8.651
47.0,752111.426,-1.6,1.6,2.9,4.0,2.485,2.483,9.443,8.656
48.0,767470.73,-1.6,1.6,2.9,4.0,2.485,2.479,9.444,8.638
49.0,782842.357,-1.6,1.6,2.9,4.0,2.48,2.481,9.43,8.643
50.0,798210.674,-1.6,1.6,2.9,4.0,2.483,2.481,9.438,8.645
51.0,813582.436,-1.6,1.6,2.9,4.0,2.483,2.482,9.437,8.65
52.0,822976.381,-1.6,1.6,2.9,4.0,1.953,1.954,7.318,6.678
53.0,838372.237,-1.6,1.6,2.9,4.0,2.484,2.476,9.444,8.625
54.0,853756.505,-1.6,1.6,2.9,4.0,2.478,2.474,9.422,8.616
55.0,869146.88,-1.6,1.6,2.9,4.0,2.476,2.472,9.415,8.609
56.0,884539.441,-1.6,1.6,2.9,4.0,2.474,2.471,9.408,8.606
57.0,893832.573,-1.6,1.6,2.9,4.0,1.931,1.931,7.237,6.594
58.0,909282.119,-1.6,1.6,2.9,4.0,2.473,2.47,9.407,8.601
59.0,924687.145,-1.6,1.6,2.9,4.0,2.472,2.468,9.403,8.595
60.0,933971.513,-1.6,1.6,2.9,4.0,1.928,1.931,7.225,6.592
61.0,949428.271,-1.6,1.6,2.9,4.0,2.473,2.467,9.408,8.59
62.0,964840.748,-1.6,1.6,2.9,4.0,2.47,2.467,9.395,8.588
63.0,980256.814,-1.6,1.6,2.9,4.0,2.469,2.463,9.391,8.573
64.0,995646.363,-1.6,1.6,2.9,4.0,2.465,2.464,9.379,8.576
65.0,1011046.278,-1.6,1.6,2.9,4.0,2.465,2.464,9.379,8.577
66.0,1026459.54,-1.6,1.6,2.9,4.0,2.467,2.462,9.385,8.568
67.0,1041881.059,-1.6,1.6,2.9,4.0,2.464,2.46,9.375,8.564
68.0,1051103.176,-1.6,1.6,2.9,4.0,1.914,1.916,7.176,6.538
69.0,1066578.011,-1.6,1.6,2.9,4.0,2.465,2.457,9.38,8.551
70.0,1082016.801,-1.6,1.6,2.9,4.0,2.46,2.459,9.363,8.558
71.0,1097457.425,-1.6,1.6,2.9,4.0,2.461,2.459,9.365,8.555
72.0,1112904.5,-1.6,1.6,2.9,4.0,2.461,2.455,9.366,8.542
73.0,1128348.246,-1.6,1.6,2.9,4.0,2.457,2.456,9.354,8.544
74.0,1143782.518,-1.6,1.6,2.9,4.0,2.458,2.453,9.356,8.534
75.0,1159234.271,-1.6,1.6,2.9,4.0,2.455,2.453,9.346,8.534
76.0,1174690.708,-1.6,1.6,2.9,4.0,2.455,2.453,9.344,8.532
77.0,1190128.246,-1.6,1.6,2.9,4.0,2.455,2.451,9.346,8.526
78.0,1205592.057,-1.6,1.6,2.9,4.0,2.453,2.451,9.338,8.524
79.0,1221049.003,-1.6,1.6,2.9,4.0,2.453,2.453,9.338,8.53
80.0,1236488.191,-1.6,1.6,2.9,4.0,2.454,2.446,9.34,8.508
81.0,1251946.174,-1.6,1.6,2.9,4.0,2.449,2.448,9.325,8.515
82.0,1267385.761,-1.6,1.6,2.9,4.0,2.45,2.449,9.33,8.516
83.0,1282830.93,-1.6,1.6,2.9,4.0,2.451,2.446,9.332,8.507
84.0,1298292.931,-1.6,1.6,2.9,4.0,2.449,2.447,9.324,8.509
85.0,1313748.483,-1.6,1.6,2.9,4.0,2.449,2.444,9.325,8.5
86.0,1322842.389,-1.6,1.6,2.9,4.0,1.885,1.889,7.069,6.436
87.0,1338354.39,-1.6,1.6,2.9,4.0,2.451,2.446,9.334,8.503
88.0,1347457.226,-1.6,1.6,2.9,4.0,1.887,1.891,7.076,6.443
89.0,1362985.825,-1.6,1.6,2.9,4.0,2.452,2.447,9.34,8.508
90.0,1378472.376,-1.6,1.6,2.9,4.0,2.449,2.441,9.327,8.486
91.0,1393979.972,-1.6,1.6,2.9,4.0,2.443,2.438,9.307,8.474
92.0,1409454.009,-1.6,1.6,2.9,4.0,2.44,2.436,9.296,8.467
93.0,1424956.449,-1.6,1.6,2.9,4.0,2.438,2.444,9.291,8.494
94.0,1440448.102,-1.6,1.6,2.9,4.0,2.446,2.441,9.313,8.485
95.0,1455939.975,-1.6,1.6,2.9,4.0,2.443,2.443,9.307,8.493
96.0,1471433.155,-1.6,1.6,2.9,4.0,2.445,2.433,9.311,8.457
97.0,1486943.029,-1.6,1.6,2.9,4.0,2.436,2.437,9.283,8.47
98.0,1502450.127,-1.601,1.6,2.9,4.0,2.439,2.433,9.291,8.456
99.0,1517988.254,-1.6,1.6,2.9,4.0,2.437,2.441,9.284,8.482
100.0,1533486.516,-1.6,1.6,2.9,4.0,2.442,2.437,9.302,8.469
101.0,1542530.396,-1.6,1.6,2.9,4.0,1.872,1.879,7.024,6.399
102.0,1558118.379,-1.6,1.6,2.9,4.0,2.446,2.434,9.318,8.456
103.0,1573650.404,-1.6,1.6,2.9,4.0,2.437,2.432,9.286,8.45
104.0,1589169.623,-1.6,1.6,2.9,4.0,2.434,2.43,9.273,8.443
105.0,1604693.959,-1.6,1.6,2.9,4.0,2.433,2.436,9.27,8.464
106.0,1620237.202,-1.6,1.6,2.9,4.0,2.439,2.448,9.292,8.504
107.0,1635824.557,-1.6,1.6,2.9,4.0,2.45,2.429,9.327,8.439
108.0,1651351.656,-1.6,1.6,2.9,4.0,2.432,2.429,9.267,8.439
109.0,1666880.941,-1.6,1.6,2.9,4.0,2.43,2.427,9.263,8.432
110.0,1682405.86,-1.6,1.6,2.9,4.0,2.429,2.426,9.259,8.426
111.0,1697910.387,-1.6,1.6,2.9,4.0,2.427,2.423,9.252,8.417
112.0,1713403.882,-1.6,1.6,2.9,4.0,2.426,2.426,9.247,8.427
113.0,1728930.466,-1.6,1.6,2.9,4.0,2.428,2.428,9.256,8.431
114.0,1744473.564,-1.6,1.6,2.9,4.0,2.43,2.426,9.261,8.426
115.0,1753424.464,-1.6,1.6,2.9,4.0,1.851,1.859,6.948,6.323
116.0,1769030.78,-1.603,1.6,2.9,4.0,2.434,2.424,9.281,8.417
117.0,1784550.17,-1.6,1.6,2.9,4.0,2.427,2.431,9.253,8.443
118.0,1800072.101,-1.6,1.6,2.9,4.0,2.433,2.422,9.273,8.41
119.0,1815605.244,-1.6,1.6,2.9,4.0,2.425,2.422,9.244,8.41
120.0,1831186.111,-1.6,1.6,2.9,4.0,2.425,2.422,9.244,8.411
121.0,1846761.226,-1.6,1.6,2.9,4.0,2.423,2.419,9.239,8.398
122.0,1862362.751,-1.6,1.6,2.9,4.0,2.421,2.424,9.23,8.416
123.0,1877901.377,-1.6,1.6,2.9,4.0,2.427,2.421,9.25,8.405
124.0,1893454.07,-1.6,1.6,2.9,4.0,2.423,2.425,9.239,8.419
125.0,1908999.024,-1.6,1.6,2.9,4.0,2.427,2.42,9.251,8.403
126.0,1924568.929,-1.6,1.6,2.9,4.0,2.422,2.417,9.233,8.393
127.0,1940151.969,-1.6,1.6,2.9,4.0,2.42,2.418,9.227,8.395
128.0,1955745.717,-1.6,1.6,2.9,4.0,2.419,2.417,9.223,8.39
129.0,1971310.268,-1.6,1.6,2.9,4.0,2.419,2.411,9.224,8.371
130.0,1986890.048,-1.6,1.6,2.9,4.0,2.414,2.415,9.209,8.383
131.0,2002463.253,-1.6,1.6,2.9,4.0,2.417,2.414,9.218,8.379
132.0,2018049.128,-1.6,1.6,2.9,4.0,2.416,2.411,9.215,8.37
133.0,2033664.019,-1.6,1.6,2.9,4.0,2.413,2.417,9.205,8.393
134.0,2049209.029,-1.6,1.6,2.9,4.0,2.419,2.413,9.225,8.376
135.0,2064724.639,-1.6,1.6,2.9,4.0,2.416,2.408,9.211,8.359
136.0,2080338.523,-1.6,1.6,2.9,4.0,2.41,2.408,9.194,8.357
137.0,2095924.895,-1.6,1.6,2.9,4.0,2.411,2.408,9.196,8.356
138.0,2111507.896,-1.6,1.6,2.9,4.0,2.41,2.411,9.194,8.367
139.0,2127085.877,-1.6,1.6,2.9,4.0,2.413,2.412,9.203,8.369
140.0,2142655.227,-1.6,1.6,2.9,4.0,2.414,2.42,9.208,8.404
141.0,2158168.171,-1.6,1.6,2.9,4.0,2.422,2.407,9.231,8.355
142.0,2173717.014,-1.6,1.6,2.9,4.0,2.409,2.402,9.189,8.337
143.0,2189303.823,-1.6,1.6,2.9,4.0,2.404,2.397,9.173,8.316
144.0,2204927.905,-1.6,1.6,2.9,4.0,2.399,2.401,9.155,8.33
145.0,2220481.824,-1.6,1.6,2.9,4.0,2.404,2.413,9.173,8.374
146.0,2236042.971,-1.6,1.6,2.9,4.0,2.415,2.408,9.207,8.358
147.0,2251633.366,-1.6,1.6,2.9,4.0,2.41,2.407,9.193,8.351
148.0,2267215.84,-1.6,1.6,2.9,4.0,2.408,2.4,9.187,8.327
149.0,2282808.245,-1.6,1.6,2.9,4.0,2.402,2.402,9.166,8.333
150.0,2298303.442,-1.6,1.6,2.9,4.0,2.403,2.405,9.168,8.348
151.0,2313883.127,-1.6,1.6,2.9,4.0,2.408,2.404,9.185,8.34
152.0,2329486.793,-1.6,1.6,2.9,4.0,2.405,2.4,9.176,8.324
153.0,2345072.333,-1.6,1.6,2.9,4.0,2.402,2.4,9.164,8.323
154.0,2360676.319,-1.6,1.6,2.9,4.0,2.402,2.395,9.164,8.306
155.0,2376307.437,-1.6,1.6,2.9,4.0,2.396,2.398,9.144,8.314
156.0,2391893.539,-1.6,1.6,2.9,4.0,2.402,2.41,9.165,8.36
157.0,2407448.912,-1.6,1.6,2.9,4.0,2.413,2.41,9.201,8.363
158.0,2423032.533,-1.6,1.6,2.9,4.0,2.411,2.406,9.195,8.346
159.0,2431877.027,-1.6,1.6,2.9,4.0,1.82,1.842,6.834,6.255
160.0,2447567.174,-1.6,1.6,2.9,4.0,2.429,2.398,9.263,8.316
161.0,2456310.373,-1.601,1.6,2.9,4.0,1.805,1.813,6.779,6.155
162.0,2472035.223,-1.6,1.6,2.9,4.0,2.407,2.393,9.186,8.296
163.0,2487707.495,-1.6,1.6,2.9,4.0,2.396,2.394,9.143,8.304
164.0,2503353.018,-1.6,1.6,2.9,4.0,2.396,2.387,9.146,8.275
165.0,2519035.383,-1.6,1.6,2.9,4.0,2.389,2.386,9.121,8.27
166.0,2534683.916,-1.6,1.6,2.9,4.0,2.388,2.387,9.117,8.276
167.0,2550357.13,-1.6,1.6,2.9,4.0,2.39,2.385,9.123,8.269
168.0,2566018.88,-1.6,1.6,2.9,4.0,2.386,2.385,9.112,8.269
169.0,2581655.645,-1.6,1.6,2.9,4.0,2.388,2.384,9.116,8.265
170.0,2597294.185,-1.6,1.6,2.9,4.0,2.386,2.379,9.112,8.247
171.0,2612951.18,-1.6,1.6,2.9,4.0,2.381,2.378,9.095,8.241
172.0,2628600.355,-1.6,1.6,2.9,4.0,2.381,2.381,9.093,8.253
173.0,2644218.751,-1.6,1.6,2.9,4.0,2.383,2.388,9.098,8.281
174.0,2659869.575,-1.6,1.6,2.9,4.0,2.391,2.398,9.127,8.319
175.0,2675459.792,-1.6,1.6,2.9,4.0,2.4,2.386,9.158,8.274
176.0,2691098.351,-1.6,1.6,2.9,4.0,2.387,2.378,9.114,8.245
177.0,2706728.594,-1.6,1.6,2.9,4.0,2.38,2.373,9.088,8.225
178.0,2722379.297,-1.6,1.6,2.9,4.0,2.375,2.382,9.074,8.258
179.0,2737995.265,-1.6,1.6,2.9,4.0,2.386,2.39,9.108,8.286
180.0,2753599.423,-1.6,1.6,2.9,4.0,2.393,2.388,9.131,8.283
181.0,2769243.12,-1.6,1.6,2.9,4.0,2.391,2.388,9.125,8.283
182.0,2777935.667,-1.6,1.6,2.9,4.0,1.793,1.802,6.736,6.116
183.0,2793650.145,-1.6,1.6,2.9,4.0,2.397,2.375,9.153,8.234
184.0,2809336.831,-1.6,1.6,2.9,4.0,2.378,2.374,9.083,8.231
185.0,2825007.261,-1.6,1.6,2.9,4.0,2.378,2.383,9.082,8.259
186.0,2840635.505,-1.6,1.6,2.9,4.0,2.385,2.383,9.105,8.263
187.0,2856261.636,-1.6,1.6,2.9,4.0,2.386,2.382,9.107,8.26
188.0,2871892.807,-1.6,1.6,2.9,4.0,2.385,2.38,9.107,8.251
189.0,2887536.614,-1.6,1.6,2.9,4.0,2.38,2.366,9.09,8.196
190.0,2903144.945,-1.6,1.6,2.9,4.0,2.367,2.357,9.043,8.166
191.0,2918835.586,-1.6,1.6,2.9,4.0,2.358,2.36,9.016,8.174
192.0,2934488.222,-1.6,1.6,2.9,4.0,2.363,2.36,9.031,8.177
193.0,2950136.367,-1.6,1.6,2.9,4.0,2.362,2.357,9.027,8.165
194.0,2965785.345,-1.6,1.6,2.9,4.0,2.36,2.363,9.021,8.187
195.0,2981450.767,-1.6,1.6,2.9,4.0,2.365,2.366,9.038,8.197
196.0,2997130.345,-1.6,1.6,2.899,4.0,2.368,2.368,9.047,8.199
197.0,3012778.595,-1.6,1.6,2.9,4.0,2.371,2.362,9.058,8.184
198.0,3028428.651,-1.6,1.6,2.9,4.0,2.363,2.354,9.029,8.155
199.0,3043998.725,-1.6,1.6,2.9,4.0,2.358,2.357,9.015,8.169
200.0,3059663.873,-1.6,1.6,2.9,4.0,2.359,2.36,9.017,8.174
201.0,3075295.956,-1.6,1.6,2.9,4.0,2.361,2.357,9.025,8.164
202.0,3090957.271,-1.6,1.6,2.9,4.0,2.359,2.357,9.018,8.165
203.0,3106604.714,-1.6,1.6,2.9,4.0,2.359,2.357,9.018,8.165
204.0,3122272.003,-1.6,1.6,2.9,4.0,2.359,2.349,9.017,8.134
205.0,3137952.635,-1.6,1.6,2.9,4.0,2.351,2.353,8.99,8.152
206.0,3153632.734,-1.6,1.6,2.9,4.0,2.356,2.356,9.006,8.162
207.0,3169320.863,-1.6,1.6,2.9,4.0,2.359,2.362,9.017,8.182
208.0,3184974.918,-1.6,1.6,2.9,4.0,2.365,2.368,9.035,8.206
209.0,3200635.779,-1.6,1.6,2.9,4.0,2.37,2.365,9.053,8.195
210.0,3216285.822,-1.6,1.6,2.9,4.0,2.367,2.362,9.043,8.185
211.0,3231944.254,-1.6,1.6,2.9,4.0,2.365,2.37,9.035,8.212
212.0,3247611.298,-1.6,1.6,2.9,4.0,2.373,2.368,9.063,8.209
213.0,3263231.617,-1.6,1.6,2.9,4.0,2.37,2.364,9.051,8.192
214.0,3278873.31,-1.6,1.6,2.9,4.0,2.367,2.367,9.041,8.202
215.0,3294500.787,-1.6,1.6,2.9,4.0,2.369,2.366,9.05,8.199
216.0,3310139.113,-1.6,1.6,2.9,4.0,2.367,2.359,9.042,8.173
217.0,3325801.856,-1.6,1.6,2.9,4.0,2.361,2.357,9.021,8.167
218.0,3341432.295,-1.6,1.6,2.9,4.0,2.36,2.36,9.019,8.182
219.0,3357068.643,-1.6,1.6,2.9,4.0,2.363,2.359,9.03,8.174
220.0,3372707.42,-1.6,1.6,2.9,4.0,2.36,2.352,9.018,8.15
221.0,3381167.029,-1.6,1.6,2.9,4.0,1.742,1.75,6.55,5.931
222.0,3396916.271,-1.6,1.6,2.9,4.0,2.361,2.338,9.027,8.094
223.0,3412646.293,-1.6,1.6,2.9,4.0,2.341,2.342,8.954,8.108
224.0,3428303.959,-1.6,1.6,2.9,4.0,2.344,2.342,8.965,8.109
225.0,3443975.567,-1.6,1.6,2.9,4.0,2.345,2.343,8.969,8.116
226.0,3459633.395,-1.6,1.6,2.9,4.0,2.345,2.334,8.967,8.081
227.0,3475298.085,-1.6,1.6,2.9,4.0,2.336,2.33,8.938,8.064
228.0,3490975.13,-1.6,1.6,2.9,4.0,2.332,2.334,8.924,8.08
229.0,3506628.589,-1.6,1.6,2.9,4.0,2.337,2.339,8.938,8.099
230.0,3515030.466,-1.6,1.6,2.9,4.0,1.724,1.743,6.484,5.903
231.0,3530812.889,-1.6,1.6,2.9,4.0,2.36,2.342,9.025,8.11
232.0,3546483.39,-1.6,1.6,2.9,4.0,2.345,2.339,8.968,8.099
233.0,3562164.994,-1.6,1.6,2.9,4.0,2.341,2.337,8.954,8.091
234.0,3577832.955,-1.6,1.6,2.9,4.0,2.339,2.334,8.946,8.077
235.0,3593509.027,-1.6,1.6,2.9,4.0,2.343,2.338,8.963,8.096
236.0,3609142.934,-1.6,1.6,2.9,4.0,2.34,2.333,8.949,8.077
237.0,3624837.03,-1.6,1.6,2.9,4.0,2.337,2.343,8.94,8.111
238.0,3633255.807,-1.6,1.6,2.9,4.0,1.732,1.74,6.516,5.895
239.0,3648979.714,-1.6,1.6,2.9,4.0,2.355,2.336,9.007,8.086
240.0,3664646.557,-1.6,1.6,2.9,4.0,2.339,2.333,8.946,8.075
241.0,3680274.022,-1.6,1.6,2.9,4.0,2.336,2.337,8.936,8.09
242.0,3695927.671,-1.6,1.6,2.9,4.0,2.339,2.332,8.947,8.072
243.0,3711589.853,-1.6,1.6,2.9,4.0,2.334,2.335,8.93,8.086
244.0,3727242.654,-1.6,1.6,2.9,4.0,2.338,2.334,8.942,8.081
245.0,3742914.534,-1.6,1.6,2.9,4.0,2.337,2.332,8.939,8.075
246.0,3758605.739,-1.6,1.6,2.9,4.0,2.335,2.333,8.934,8.079
247.0,3774263.869,-1.6,1.6,2.9,4.0,2.335,2.331,8.933,8.069
248.0,3789945.498,-1.6,1.6,2.9,4.0,2.333,2.331,8.925,8.069
249.0,3805621.126,-1.6,1.6,2.9,4.0,2.334,2.335,8.928,8.087
250.0,3821291.436,-1.6,1.6,2.9,4.0,2.338,2.334,8.941,8.082
251.0,3836932.487,-1.6,1.6,2.9,4.0,2.336,2.334,8.933,8.082
252.0,3852541.376,-1.6,1.6,2.9,4.0,2.336,2.32,8.937,8.03
253.0,3860808.21,-1.6,1.6,2.9,4.0,1.694,1.711,6.38,5.792
254.0,3876653.736,-1.6,1.6,2.9,4.0,2.337,2.328,8.947,8.056
255.0,3892317.551,-1.6,1.6,2.9,4.0,2.332,2.33,8.921,8.066
256.0,3907969.58,-1.6,1.6,2.9,4.0,2.332,2.325,8.921,8.047
257.0,3923650.591,-1.601,1.6,2.9,4.0,2.327,2.33,8.903,8.067
258.0,3939326.112,-1.6,1.6,2.9,4.0,2.332,2.324,8.921,8.046
259.0,3954964.888,-1.6,1.6,2.9,4.0,2.326,2.326,8.899,8.052
260.0,3970605.252,-1.6,1.6,2.9,4.0,2.329,2.333,8.91,8.077
261.0,3975161.744,-1.6,1.6,2.9,3.999,0.859,0.899,3.131,2.944
262.0,3991012.76,-1.6,1.6,2.9,4.0,2.374,2.325,9.079,8.049
263.0,4006667.328,-1.6,1.6,2.9,4.0,2.327,2.318,8.905,8.022
264.0,4022335.523,-1.6,1.6,2.9,4.0,2.32,2.321,8.882,8.03
265.0,4037997.327,-1.6,1.6,2.9,4.0,2.323,2.322,8.89,8.037
266.0,4053594.498,-1.6,1.6,2.9,4.0,2.325,2.313,8.897,8.006
267.0,4069261.521,-1.6,1.6,2.9,4.0,2.314,2.304,8.861,7.97
268.0,4084941.249,-1.6,1.6,2.9,4.0,2.305,2.296,8.83,7.938
269.0,4100652.619,-1.6,1.6,2.9,4.0,2.297,2.296,8.803,7.937
270.0,4116354.721,-1.6,1.6,2.9,4.0,2.299,2.3,8.809,7.951
271.0,4132031.082,-1.6,1.6,2.9,4.0,2.303,2.302,8.82,7.962
272.0,4147692.934,-1.6,1.6,2.9,4.0,2.303,2.298,8.824,7.949
273.0,4163363.922,-1.6,1.6,2.9,4.0,2.3,2.293,8.811,7.928
274.0,4179041.031,-1.6,1.6,2.9,4.0,2.294,2.288,8.792,7.909
275.0,4194747.72,-1.6,1.6,2.9,4.0,2.29,2.294,8.778,7.931
276.0,4210428.976,-1.6,1.6,2.9,4.0,2.296,2.295,8.799,7.939
277.0,4226042.578,-1.6,1.6,2.9,4.0,2.297,2.291,8.801,7.922
278.0,4241713.229,-1.6,1.6,2.9,4.0,2.292,2.285,8.785,7.899
279.0,4257347.546,-1.6,1.6,2.9,4.0,2.287,2.284,8.761,7.896
280.0,4273040.277,-1.6,1.6,2.9,4.0,2.285,2.283,8.762,7.891
281.0,4288730.0,-1.6,1.6,2.9,4.0,2.286,2.287,8.764,7.908
282.0,4304400.898,-1.6,1.6,2.9,4.0,2.289,2.283,8.776,7.892
283.0,4320082.193,-1.6,1.6,2.9,4.0,2.284,2.278,8.758,7.874
284.0,4335763.49,-1.6,1.6,2.9,4.0,2.279,2.273,8.742,7.857
285.0,4351436.6,-1.6,1.6,2.9,4.0,2.274,2.268,8.725,7.838
286.0,4367160.69,-1.6,1.6,2.9,4.0,2.271,2.278,8.713,7.873
287.0,4382832.224,-1.6,1.6,2.9,4.0,2.28,2.276,8.743,7.867
288.0,4398491.424,-1.6,1.6,2.9,4.0,2.279,2.276,8.74,7.868
289.0,4414167.6,-1.6,1.6,2.9,4.0,2.278,2.274,8.737,7.859
290.0,4429841.429,-1.6,1.6,2.9,4.0,2.275,2.267,8.726,7.835
291.0,4445563.159,-1.6,1.6,2.9,4.0,2.269,2.271,8.705,7.843
292.0,4461249.775,-1.6,1.6,2.9,4.0,2.274,2.281,8.721,7.887
293.0,4476905.239,-1.6,1.6,2.9,4.0,2.284,2.29,8.755,7.918
294.0,4492557.963,-1.6,1.6,2.9,4.0,2.292,2.284,8.783,7.898
295.0,4508223.342,-1.6,1.6,2.9,4.0,2.287,2.28,8.764,7.883
296.0,4523902.036,-1.6,1.6,2.9,4.0,2.282,2.276,8.748,7.864
297.0,4539573.793,-1.6,1.6,2.9,4.0,2.279,2.283,8.738,7.893
298.0,4555228.592,-1.6,1.6,2.9,4.0,2.286,2.288,8.761,7.913
299.0,4570868.94,-1.601,1.6,2.9,4.0,2.291,2.29,8.78,7.92
300.0,4586521.916,-1.6,1.6,2.9,4.0,2.291,2.282,8.781,7.893
301.0,4602183.492,-1.6,1.6,2.9,4.0,2.283,2.271,8.751,7.848
302.0,4617868.446,-1.6,1.6,2.9,4.0,2.272,2.27,8.715,7.843
303.0,4633549.535,-1.6,1.6,2.9,4.0,2.273,2.275,8.719,7.863
304.0,4649253.089,-1.6,1.6,2.9,4.0,2.277,2.277,8.732,7.871
305.0,4664887.201,-1.6,1.6,2.9,4.0,2.279,2.273,8.739,7.857
306.0,4680548.511,-1.6,1.6,2.9,4.0,2.275,2.269,8.725,7.843
307.0,4696205.026,-1.6,1.6,2.9,4.0,2.271,2.265,8.71,7.825
308.0,4711933.253,-1.6,1.6,2.9,4.0,2.268,2.278,8.701,7.874
309.0,4719961.426,-1.6,1.6,2.9,4.0,1.641,1.659,6.185,5.607
310.0,4735771.527,-1.6,1.6,2.9,4.0,2.297,2.274,8.809,7.857
311.0,4751409.018,-1.6,1.6,2.9,4.0,2.276,2.275,8.727,7.864
312.0,4767071.828,-1.6,1.6,2.9,4.0,2.278,2.276,8.736,7.866
313.0,4782733.742,-1.6,1.6,2.9,4.0,2.278,2.274,8.734,7.859
314.0,4798455.944,-1.6,1.6,2.9,4.0,2.276,2.283,8.728,7.893
315.0,4814077.486,-1.601,1.6,2.9,4.0,2.285,2.279,8.756,7.878
316.0,4829711.733,-1.6,1.6,2.9,4.0,2.281,2.274,8.745,7.862
317.0,4845382.235,-1.6,1.6,2.9,4.0,2.276,2.271,8.728,7.85
318.0,4861036.293,-1.6,1.6,2.9,4.0,2.274,2.268,8.718,7.837
319.0,4876721.498,-1.6,1.6,2.9,4.0,2.269,2.265,8.704,7.828
320.0,4892347.78,-1.6,1.6,2.9,4.0,2.267,2.266,8.696,7.829
321.0,4908012.001,-1.6,1.6,2.9,4.0,2.268,2.265,8.699,7.829
322.0,4923679.153,-1.6,1.6,2.9,4.0,2.267,2.265,8.697,7.826
323.0,4939321.358,-1.6,1.6,2.9,4.0,2.267,2.266,8.695,7.829
324.0,4954965.864,-1.6,1.6,2.9,4.0,2.268,2.264,8.698,7.824
325.0,4962920.454,-1.6,1.6,2.9,4.0,1.624,1.643,6.126,5.55
326.0,4978713.768,-1.6,1.6,2.9,4.0,2.284,2.259,8.761,7.805
327.0,4994402.622,-1.6,1.6,2.9,4.0,2.262,2.258,8.678,7.8
328.0,5010073.231,-1.6,1.6,2.9,4.0,2.26,2.26,8.672,7.807
329.0,5025746.488,-1.6,1.6,2.9,4.0,2.263,2.261,8.681,7.814
330.0,5041400.725,-1.6,1.6,2.9,4.0,2.263,2.262,8.683,7.818
331.0,5057019.297,-1.6,1.6,2.9,4.0,2.265,2.262,8.687,7.816
332.0,5072641.46,-1.6,1.6,2.9,4.0,2.264,2.26,8.685,7.81
333.0,5088326.657,-1.6,1.6,2.9,4.0,2.263,2.265,8.685,7.83
334.0,5103948.293,-1.6,1.6,2.9,4.0,2.266,2.262,8.692,7.816
335.0,5119588.858,-1.6,1.6,2.9,4.0,2.264,2.259,8.683,7.805
336.0,5135241.564,-1.6,1.6,2.9,4.0,2.261,2.257,8.673,7.799
337.0,5150899.732,-1.6,1.6,2.9,4.0,2.26,2.261,8.671,7.814
338.0,5158849.289,-1.6,1.6,2.9,4.0,1.622,1.644,6.115,5.551
339.0,5174681.258,-1.6,1.6,2.9,4.0,2.284,2.253,8.763,7.783
340.0,5190364.473,-1.6,1.6,2.9,4.0,2.256,2.256,8.656,7.793
341.0,5206035.179,-1.6,1.6,2.9,4.0,2.258,2.252,8.664,7.778
